134 3
135 5
136 1.5
137 1
138 7.5
139 5
140 5
141 2
142 1
143 7
144 2
145 12
146 8
147 6
148 12
149 7
150 2
151 6
152 5
153 3
154 4.5
155 1
156 4
157 5.5
158 1
159 11
160 0.3
161 1
163 3.5
164 2.5
165 3
166 3
167 4
169 12
172 14
173 5
175 1
177 7
178 2
179 3
180 5
181 3.5
182 3
183 2
184 2
185 2
186 2
187 1.5
188 2
189 1
190 1
191 1.5
192 2
193 4
194 5
195 2
196 4
197 3
198 2
199 2
200 3
201 3
202 3.5
203 3
204 2.5
205 3
206 5
208 1
210 2.5
211 1
212 18
213 4.5
214 1
215 2.5
216 4.5
217 2
218 3.5
219 5.5
220 2
221 1.5
222 3.5
223 3.5
224 6.5
225 3
226 2.5
227 5
228 0.5
229 2
230 2
231 4
232 2.5
233 3
234 2
235 5
236 5
237 1
238 5.5
239 1
240 3.5
241 2
242 2
243 1.5
244 1
245 3
246 2
247 3
248 2.5
249 2.5
250 1.5
251 3
252 5.5
253 3
254 3.5
255 2
256 2
257 2
258 2.5
259 1
260 2
261 5
263 2
264 5
265 8.5
266 2.5
267 1
268 3.5
269 9.5
270 1.5
271 3.5
274 3
275 6.5
276 4
277 6.5
278 4
279 5.5
280 6
281 13
282 4.5
283 2.5
284 3.5
449 0.5
450 2
451 4.5
452 2
453 2
454 4
455 2.5
456 3
457 1
458 3
459 2.5
460 2.5
461 3.5
462 3.5
463 3
464 3.5
465 1.5
466 3
467 4
468 3.5
469 5.5
470 2
471 5
472 2
473 1.5
474 6
475 2.5
476 4
477 2.5
478 3
479 2
480 5
481 5.5
482 2.5
483 1.5
484 3
485 2
486 3.5
487 2
488 3
489 5
490 4
491 3.5
492 2
493 3.5
494 4.5
495 3
496 2
497 1
498 4
499 2
500 2.5
501 1
502 13.5
503 3
504 0.5
505 1
506 6
507 1
508 1
509 4.5
510 4.5
511 3
512 4.5
513 6
514 1.5
515 3.5
516 2.5
517 2
518 1
519 2.5
520 4
521 2.5
522 4.5
523 4.5
524 3
525 7
526 2
527 3
528 5
529 1
530 4
531 4.5
532 6
533 2
534 1.5
535 4.5
536 5
537 5.5
538 4
539 3.5
540 2
541 3
542 1.5
543 1.5
544 2
545 1.5
546 2
547 3
548 3.5
549 1.5
550 1
551 2
552 5
553 2.5
554 6
555 2.5
556 5
557 3
558 2
559 1
560 1.5
561 3.5
562 2.5
563 1.5
564 3
565 1.5
566 3.5
567 4.5
568 3
569 4
570 2
571 5
572 5
573 4.5
574 4
575 2.5
576 3.5
577 2
578 3
579 3.5
580 2.5
581 5.5
582 3.5
583 3
584 5
585 2
586 2
587 1.5
588 3.5
589 4.5
590 6
591 3
592 1.5
593 3
594 5.5
595 2
596 6.5
597 2
598 5
599 4
600 2
601 2.5
602 4
603 1
604 10
605 8
606 3
607 1.5
608 1.5
609 4.5
610 3.5
611 4.5
612 3
613 4.5
614 2.5
615 2.5
616 3.5
617 3.5
618 4
619 3.5
620 6.5
621 3.5
622 3
623 3.5
624 3
625 3.5
626 3.5
627 1
628 7.5
629 6
630 1.5
631 1
632 6.5
633 1.5
634 2
635 3
636 2
637 4
638 3.5
639 4
640 2
641 3.5
642 4.5
643 2
644 2.5
645 1.5
646 1
647 3
648 4.5
649 4
650 6
651 1
652 2
653 2
654 3
655 3.5
656 6
657 3.5
658 20
659 3
660 5.5
661 1.5
662 4.5
663 8
664 4
665 4
666 2
667 3
668 3
669 8
670 1
671 2
672 12
673 3
674 1.5
675 3
676 3
677 3
678 2
679 2.5
680 2.5
681 4
682 4
683 2
684 2
685 1.5
686 1.5
687 5
688 3.5
689 6
690 3
691 3
692 4.5
693 4
694 1.5
695 1.5
696 1.5
697 2
698 1
699 3.5
700 8
701 2
702 6
703 5.5
704 4
705 16
706 5
707 2
708 2
709 5
710 2
711 6.5
712 5.5
713 1.5
714 2
715 4
716 2.5
717 1.5
718 6
719 5
720 2
721 2
722 2
723 3.5
724 2
725 3
726 4
727 2
728 4
729 5.5
730 3
731 1.5
732 1.5
733 1
734 4
735 3
736 3.5
737 4.5
738 0.5
741 3
747 2.5
758 1.5
763 2.5
764 5.5
765 6.5
766 2
995 0.5
996 2.5
997 2
998 3
999 3
1000 3.5
1001 1.5
1002 0.5
1004 2
1005 3
1006 1.5
1007 0.5
1009 2
1011 2.5
1012 2.5
1013 2
1014 500
1015 0.5
1016 5
1017 4
1019 1
1020 4
1021 2.5
1022 5
1023 6
1024 2
1025 7
1026 2
1027 0.5
1028 2.5
1029 2.5
1030 2
1031 3
1033 2.5
1034 2.5
1036 2
1037 4
1038 1.5
1039 3
1040 1
1041 2
1042 3
1043 2
1044 2.5
1045 5
1048 1.5
1050 1
1051 2
1052 2
1054 1.5
1055 4
1056 0.5
1057 1.5
1058 4
1059 0.5
1061 3
1062 3
1063 5
1064 1.5
1065 1
1066 1
1067 6
1068 3
1069 3.5
1070 2.5
1071 3
1072 5
1073 1.5
1076 2
1077 2.5
1078 4
1079 6.5
1080 2.5
1081 3
1082 2.5
1083 2.5
1084 2
1085 2
1086 3
1087 1.5
1088 3
1089 4
1090 3
1091 2.5
1092 1
1093 3
1094 1.5
1095 1
1096 2
1097 2
1098 6
1099 7
1100 5.5
1101 2
1102 4
1103 2
1104 2
1105 4
1106 1
1107 2
1108 1
1109 3
1110 2
1111 5.5
1112 1
1113 5
1114 6
1115 1
1116 1
1117 1.5
1118 5
1119 1.5
1120 4.5
1121 9
1122 4.5
1123 7
1124 6
1125 5
1126 1.5
1127 3.5
1128 1.5
1129 7.5
1130 4
1131 5
1132 1
1133 1
1135 3
1138 6.5
1139 13.5
1141 3
1143 3
1144 1
1145 1.5
1147 2.5
1150 3.5
1151 1.5
1152 2.5
1156 3.5
1157 4.5
1158 1
1159 1.5
1160 4
1161 3.5
1162 2
1166 8
1167 2
1168 4.5
1169 1.5
1170 3
1171 3.5
1172 4
1174 3
1175 1
1326 7
1329 4
1330 3
1334 3
1335 1
1338 6
1343 2.5
1344 1.5
1348 5
1350 2.5
1352 5.5
1354 4.5
1359 3.5
1363 3
1366 4
1370 3.5
1371 9
1375 8.5
1376 3.5
1377 3.5
1382 6.5
1387 3
1388 3.5
1392 2.5
1395 4.5
1397 6
1402 3.5
1405 4.5
1408 5
1410 2.5
1412 4
1418 5
1420 2
1422 1.5
1425 2
1426 5.5
1427 5.5
1429 6
1432 2
1433 4.5
1435 5
1437 2.5
1441 1
1443 5
1444 5.5
1449 1
1452 6.5
1453 5.5
1454 4.5
1455 4
1456 6
1458 2.5
1460 3.5
1462 1
1464 3.5
1466 4
1468 2
1469 3.5
1470 2
1471 3
1472 1
1473 2.5
1474 2
1476 4.5
1478 2
1479 1
1505 6
1508 24
1509 10
1510 1
1511 2
1623 3.5
1624 5.5
1625 11
1626 2.5
1627 8
1628 1
1629 3.5
1630 1
1631 2
1632 1
1633 1.5
1634 1.5
1636 4.5
1637 7
1638 4.5
1639 1.5
1640 4
1641 2
1642 1.5
1643 2
1645 4.5
1646 2.5
1647 4
1648 6
1649 5
1650 2
1651 3.5
1652 3.5
1653 3.5
1654 7
1655 7.5
1656 6.5
1657 3
1658 4.5
1659 4.5
1660 4
1661 2.5
1662 3
1663 5.5
1664 8
1665 2
1666 2.5
1667 5
1668 4
1669 6.5
1670 3.5
1671 1.5
1672 8.5
1673 2.5
1674 1.5
1675 1
1676 4.5
1677 4.5
1678 1
1679 1.5
1680 2
1681 3.5
1682 2.5
1683 1.5
1684 1
1685 3
1686 2
1687 2.5
1688 2.5
1689 2
1690 2.5
1691 3
1692 5.5
1693 3
1694 1.5
1695 2.5
1696 1
1697 2
1698 1.5
1699 2
1700 3
1701 2.5
1702 1
1703 3.5
1704 4
1705 8.5
1706 5
1707 4
1708 8.5
1709 2
1710 3
1711 5.5
1712 3.5
1713 4.5
1714 3
1715 6
1716 7
1717 2.5
1718 5.5
1719 3
1720 3
1721 1.5
1722 6.5
1723 2.5
1724 3.5
1725 7
1726 1
1727 2
1728 4.5
1729 4
1730 5.5
1731 4.5
1732 2
1733 3
1734 2.5
1735 3
1736 3.5
1737 6.5
1738 6.5
1739 3.5
1740 4
1742 4
1744 3.5
1745 3
1746 1.5
1747 2.5
1748 7
1749 4.5
1750 4
1751 4
1752 3
1753 3
1754 7
1755 11
1756 16
1757 0.5
1760 1.5
1761 1
1762 8.5
1763 10.5
1764 1
1889 2
1890 3.5
1891 4
1892 3.5
1893 2.5
1894 5
1895 3
1898 5.5
1899 2.5
1900 2
1901 2
1902 2.5
1903 9
1904 5.5
1905 5.5
1906 4
1907 4
1908 2.5
1909 5
1910 6
1911 2
1912 3
1913 5
1914 4
1915 6
1916 3
1917 3
1918 3
1919 8
1920 8.5
1921 7
1922 1.5
1923 2
1924 4.5
1925 11
1926 1.5
1927 1.5
1928 8.5
1929 8
1930 3
1931 4.5
1932 11
1933 6
1934 8
1935 4.5
1936 9
1937 3
1938 7
1939 4.5
1940 8.5
1941 2.5
1942 3
1943 2.5
1944 5
1945 1.5
1946 9.5
1947 5.5
1948 4
1949 4.5
1950 6
1951 7.5
1952 4
1953 6.5
1954 6.5
1955 5
1957 4
1958 4
1959 6
1960 9.5
1961 4.5
1964 2
1965 6
1966 6.5
1967 4.5
1968 4.5
1970 7.5
1971 2.5
1972 5
1977 7.5
1978 5.5
1979 3
1980 5.5
1982 6
2148 1
2149 3.6
2150 3.4
2151 5.5
2152 2.6
2153 5.2
2154 1.5
2155 3.2
2156 4.4
2157 2.6
2158 1.8
2159 2.8
2160 6
2161 3.2
2162 2.4
2163 6
2164 2.8
2165 1.8
2166 3.2
2167 5.2
2168 4.4
2169 4.2
2170 2.5
2171 2
2172 6
2173 3.2
2174 1
2175 4
2176 3.4
2177 2
2178 4.4
2179 5.8
2180 1.6
2181 4.2
2182 6.4
2183 3.6
2184 3.2
2185 6
2186 6
2187 3
2188 3
2189 1.8
2190 1.5
2191 3
2192 1
2193 1
2194 1.6
2195 0.8
2196 1.6
2197 0.9
2198 1
2199 1.5
2200 1.6
2201 0.7
2202 1.2
2203 1.6
2204 1.5
2205 3.2
2206 2.4
2207 2.4
2208 2.8
2209 0.5
2210 2
2211 1.2
2212 2
2213 2.4
2214 2
2215 4.5
2216 1
2217 1.4
2218 4
2219 2.4
2220 1
2221 0.6
2222 1.4
2223 2.8
2224 2.4
2225 3.6
2226 1.5
2227 4.5
2228 2.8
2229 3.2
2230 3.2
2231 2.2
2232 1.6
2233 1
2234 4.4
2235 4.5
2236 4.9
2237 2.4
2238 2.4
2239 7.1
2240 500
2241 3.6
2242 2
2243 2
2244 2.5
2245 4
2246 3.2
2247 5.8
2248 4
2249 1.6
2250 1.8
2251 2.8
2252 6.4
2253 3.2
2254 1.1
2255 3
2256 1.5
2257 8
2258 3
2259 2.5
2260 0.8
2261 2
2262 1.5
2264 2.3
2265 2.2
2266 4.8
2267 2.5
2268 2.6
2269 3.4
2270 4.9
2271 7.6
2272 2.6
2273 10
2274 1.6
2275 500
2276 500
2277 4.4
2278 1.8
2279 7.6
2280 4
2281 3.7
2282 2.8
2283 8.8
2284 2
2285 1
2286 1.2
2287 4.8
2288 6
2289 2.6
2290 7.6
2291 3.2
2292 3.6
2293 2.8
2294 6
2295 2.5
2296 1.2
2297 2.8
2298 1.2
2299 4.2
2300 4
2301 7.4
2302 7.2
2303 2.7
2304 4
2305 4.4
2306 4.2
2307 2.4
2308 1.2
2309 2
2310 2
2311 5.3
2312 4
2313 4.4
2314 6
2315 1.2
2316 1.5
2317 2.2
2318 3
2319 4.4
2320 1.5
2321 2.5
2322 4.8
2323 4
2324 2.4
2325 2
2326 5.2
2327 1.6
2328 2
2329 2
2330 5.7
2331 3.5
2332 1.2
2333 5
2334 4.8
2335 1
2336 11
2337 6.8
2338 9
2339 5
2340 3
2341 6
2342 3.2
2343 5.1
2344 3
2345 1.5
2346 0.7
2347 2.2
2348 2
2349 2.5
2350 6.5
2351 2.4
2352 3
2353 6.8
2354 1.2
2355 0.8
2356 2.4
2357 1.1
2358 1.8
2359 10
2361 1
2362 9.5
2363 0.5
2364 3
2365 5
2367 3
2369 2
2370 1.5
2371 1
2372 2
2374 2
2375 3
2377 4
2378 6
2380 2
2381 6
2383 12
2384 3
2385 3
2389 4.5
2390 3
2633 3
2634 1
2635 1
2636 1
2637 5
2638 1.5
2639 2.5
2640 1
2641 3
2642 1.5
2643 1.5
2644 2
2645 1.5
2646 3.5
2647 1.5
2648 3
2649 2
2650 3.5
2651 2
2652 2
2653 1
2654 2
2655 2
2656 3
2657 1
2658 3.5
2659 8.5
2660 4
2661 6
2662 3
2663 6
2664 2
2665 4
2666 2.5
2667 1.5
2668 1
2669 0.5
2670 1
2671 2
2672 1
2673 2
2674 1.5
2675 1
2676 4
2677 1.5
2678 1.5
2679 3
2680 9
2681 2.5
2682 3.5
2683 3.5
2684 1.5
2685 4.5
2686 3
2688 1
2690 3
2691 1.5
2692 1.5
2693 2.5
2694 3
2695 5.5
2696 4
2697 1.5
2698 2
2699 2.5
2700 1.5
2701 4
2702 2
2703 2
2704 1.5
2705 2
2706 4
2707 4.5
2708 5.5
2709 4.5
2710 2
2711 2
2712 2
2713 3.5
2714 1.5
2715 12.5
2716 3
2717 2.5
2718 1
2719 1.5
2720 3.5
2721 9
2722 6.5
2723 4
2724 2
2725 1
2726 7
2727 4.5
2728 8
2729 2.5
2730 3.5
2731 3
2732 2.5
2733 2
2734 6
2735 2.5
2736 2
2737 4
2738 4
2739 5
2740 5
2741 6
2742 2
2743 4
2744 1
2745 2
2746 3.5
2747 3
2748 3.5
2749 3
2750 5
2751 2.5
2752 2.5
2753 2.9
2754 2
2755 5
2756 6
2757 2.5
2758 2.5
2759 1.5
2760 3.5
2761 1.5
2762 4
2763 4.5
2764 3
2765 2.5
2766 1.5
2767 3
2768 3
2769 1.5
2770 1.5
2771 1
2772 2.5
2773 2.5
2774 2
2775 2
2776 3
2777 2
2778 2.5
2780 2.5
2781 5
2782 2.5
2783 3
2784 2
2785 3
2786 3
2787 3.5
2788 2
2789 1.5
2790 1.5
2791 3
2792 1
2793 1
2794 2
2795 2
2796 1.5
2797 2
2798 1.5
2799 2.5
2800 2
2801 1.5
2802 1.5
2803 1
2804 1.5
2805 3.5
2806 2
2807 2
2808 4.5
2809 1.5
2812 2.5
2814 1
2815 1.5
2816 1
2817 2
2818 2.5
2819 5.5
2820 3.5
2821 3
2822 2
2824 2
2825 3
2826 3
2827 3
2828 3.5
2829 2.5
2830 1.5
2831 2
2832 2.5
2833 1.5
2836 2.5
2837 1
2838 1
2839 1
2840 5.5
2841 3
2842 3
2843 3
2845 4
2846 4
2849 2
2850 2.5
2853 4
2854 3
2855 5.5
2856 1.5
2857 2.5
3048 5.5
3049 1.5
3050 2
3051 0.5
3052 3.5
3053 2
3054 3.5
3055 6
3056 1.5
3057 1.5
3058 2.5
3059 3.5
3061 4
3062 3
3063 1.5
3064 1.5
3065 1
3066 1
3067 0.5
3068 0.5
3069 1.5
3070 2.5
3071 4
3072 4.5
3073 2
3074 5
3075 3
3076 3
3077 1
3078 3
3079 6.5
3080 6
3084 7.5
3151 3
3152 4
3153 5
3154 1.5
3155 5
3156 3.5
3157 3.5
3158 5
3159 7
3160 3
3161 1.5
3162 2.5
3163 3
3164 2.5
3165 2.5
3166 5
3167 2
3168 4
3169 5
3170 4
3171 4.5
3172 3
3173 3
3174 4.5
3175 5
3176 4
3177 2.5
3178 3
3179 3.5
3180 4
3181 3
3182 4
3183 3.5
3184 3.5
3185 7
3186 5
3187 5
3188 4
3189 2
3190 2.5
3191 1.5
3192 5
3193 2
3194 6
3195 6
3196 3
3197 6
3198 11
3199 3
3200 3.5
3201 3.5
3202 2
3203 1
3204 2.5
3205 3.5
3207 7
3208 7.5
3209 5.5
3210 3
3211 4.5
3212 4.5
3213 2
3214 2
3215 2.5
3216 1
3217 7
3218 1
3219 5.5
3220 5.5
3221 1
3222 2.5
3223 2
3224 5
3225 5
3226 2.5
3227 3.5
3228 8
3229 2.5
3230 2
3231 2
3232 4
3233 4
3234 3
3235 4
3236 2
3237 5.5
3238 4.5
3239 5.5
3240 3
3241 5
3249 5
3250 9
3251 3.5
3254 7
3257 7
3260 5
3396 2
3398 5
3399 5.5
3400 2.5
3401 2
3402 3
3403 6.5
3404 1.5
3405 2.5
3406 3.5
3407 1.5
3408 4.5
3409 3.5
3410 5
3411 3
3412 1.5
3413 2
3414 1
3416 5
3417 3.5
3418 6.5
3419 3.5
3420 2
3421 4
3422 1.5
3423 2
3424 4
3425 2
3426 6
3427 4
3428 3
3429 4
3430 4
3431 6
3432 4
3433 5
3434 1
3435 1.5
3436 3
3437 3.5
3438 5.5
3439 3
3440 1
3441 5
3442 3
3443 3
3444 4
3445 2
3446 5
3447 4.5
3448 1.5
3449 2
3450 1.5
3451 5.5
3452 1.5
3453 6
3454 5
3456 7.5
3457 2
3458 3
3459 7.5
3460 4.5
3461 3
3462 1.5
3463 2
3465 1.5
3467 1
3468 1.5
3469 4
3470 4
3471 7
3472 2
3473 3.5
3474 0.5
3475 2
3476 14.5
3477 3.53
3478 1.5
3479 1.5
3480 2.5
3481 4
3482 4
3483 5
3484 3
3485 1.5
3486 5
3487 3.5
3488 1.5
3490 3
3491 3
3492 6
3493 3.5
3494 2.5
3495 2
3496 2
3498 2.5
3500 7.5
3501 2.5
3502 2.5
3503 500
3504 2
3505 2
3507 3
3508 1
3509 1
3510 3.5
3511 3
3512 3
3513 4
3514 2
3515 6.5
3516 1
3517 3
3518 3
3519 4.5
3520 4
3521 2
3522 2.5
3523 4
3524 2.5
3525 1.5
3526 3.5
3527 2.5
3529 4.5
3530 3
3533 3.5
3536 3.5
3537 1.5
3538 9.5
3539 1
3540 1
3541 2
3542 2
3543 1.5
3544 2
3545 3.5
3546 4
3547 7.5
3548 1
3549 0.5
3550 1.5
3551 4.5
3552 3.5
3553 3.5
3554 2.5
3555 4.5
3557 2
3558 .5
3559 2.5
3560 10
3561 4.5
3562 4
3563 10.5
3564 4
3565 4
3566 3.5
3567 2.5
3568 2.5
3569 4
3570 3.5
3571 7
3572 1
3573 2
3574 7
3576 3.5
3579 7
3580 6.5
3583 2
3584 4.5
3585 7
3586 6
3587 1
3588 5.5
3589 4
3590 4
3591 1
3592 2.5
3593 5
3594 1
3595 2
3596 2.5
3597 2
3598 3
3599 2
3600 1.5
3601 4
3602 3
3603 3
3604 3.5
3605 3
3606 6.5
3607 1.5
3608 1.5
3609 6
3610 3
3611 2.5
3612 3
3613 1
3614 2.5
3615 8
3616 15
3618 3.5
3619 2.5
3621 3
3624 1.5
3625 8
3627 4
3629 4
3630 6
3632 500
3633 4.5
3635 1
3638 2
3641 5.5
3642 5.5
3644 7
3646 4
3651 10
3652 3
3653 5
3654 3
3655 2
3656 2.5
3657 3.5
3658 4.5
3659 1
3810 3
3811 1.5
3812 3.5
3813 2.5
3814 3.5
3816 5
3817 1.5
3818 3.5
3819 2
3820 3
3822 2.5
3823 6
3824 6
3825 2.5
3826 4.5
3827 4
3828 2
3829 3.5
3830 2
3831 2.5
3832 5
3833 1.5
3834 2.5
3835 3
3836 3.5
3837 5
3838 2
3839 3
3840 4
3841 1.5
3842 2.5
3843 1
3844 3
3845 1.5
3846 2
3847 1.5
3848 1.5
3849 2
3850 4.5
3851 2.5
3852 3.5
3853 1
3854 2
3857 6
3858 3
3859 2.5
3860 3.5
3861 2
3862 2.5
3863 1.5
3864 2.5
3865 4.5
3866 3.5
3867 9.5
3868 4.5
3869 1
3870 1
3871 1
3872 1.5
3873 3
3874 6
3875 2
3877 2.5
3878 2.5
3880 5.5
3881 4.5
3882 6.5
3883 1
3884 2.5
3885 2
3888 2
3889 2
3890 2
3891 2.5
3892 4.5
3893 3
3894 1
3895 3
3896 1.5
3897 3
3898 2.5
3899 13.5
3900 3.5
3901 1.5
3902 3
3903 3.5
3905 2
3906 4.5
3907 3
3908 2.5
3909 3.5
3910 4
3911 2
3912 3
3913 2.5
3914 2.5
3915 3
3916 500
3917 2
3918 3
3919 5
3920 2
3921 2
3922 4
3926 2
3928 16
3930 6.5
3932 10.5
3933 2.5
3934 3
3936 2.5
4089 1.5
4090 2.5
4092 2.5
4096 3
4097 4
4098 1.5
4099 2.0
4101 5.5
4102 5.5
4103 1
4104 3.5
4106 3.8
4108 1.3
4109 2.7
4110 0.5
4111 1.0
4112 3.5
4113 2.0
4114 2.5
4118 2
4119 2
4120 2
4123 1.5
4124 1.5
4126 5.5
4130 4.5
4131 3.0
4137 7.0
4138 4.0
4139 4
4140 1.5
4225 2.5
4226 6
4227 3.5
4228 2
4229 5.5
4230 5
4231 6.5
4232 3.5
4233 1.5
4234 5
4235 10
4236 1.5
4237 3
4238 2
4239 5
4240 3
4241 3.5
4242 1
4243 6
4244 4.5
4245 2.5
4246 4.5
4247 1
4249 2.5
4250 2.5
4251 3
4252 11
4253 2
4254 5.5
4255 1.5
4257 5
4260 3
4261 2
4262 2.5
4263 5
4264 3.5
4265 3
4266 14
4267 3
4269 4.5
4270 3
4271 3
4275 2
4276 4
4277 4.5
4278 3
4279 3
4280 2.5
4281 3.5
4282 3
4283 9.5
4284 1
4286 3
4287 3
4288 1.5
4290 4.5
4291 6
4292 2
4293 7
4294 3
4295 3.5
4296 13.5
4297 7
4298 4
4299 3
4300 1
4301 4
4302 2
4303 7
4304 4
4305 4.5
4306 2.5
4308 5
4309 3
4310 2
4311 1.5
4312 2
4313 3
4314 4
4317 4.5
4318 6
4319 2
4320 1
4321 1
4323 3
4324 1.5
4325 1.5
4326 1
4327 1.5
4328 2.5
4329 4.5
4332 2
4333 2
4334 3
4335 6
4336 3.5
4337 3
4338 1.5
4339 8.5
4340 6
4341 4
4342 6
4343 2
4344 1.5
4345 10
4346 4
4347 3.5
4348 3
4349 3
4351 1.5
4352 0.5
4353 2
4354 4
4356 1.5
4357 1.5
4358 1.5
4359 4.5
4360 6.5
4361 5
4362 3.5
4363 2.5
4364 3.5
4365 6.5
4366 5
4368 1.5
4369 2
4370 1
4371 3
4372 4
4374 3.5
4376 500
4378 8
4383 2
4575 2.5
4576 5.5
4577 5
4578 2.5
4579 2.5
4581 2.5
4582 6.5
4583 1
4584 1
4585 7
4586 1
4587 3
4588 2
4589 4.5
4590 2
4591 3
4592 2.5
4593 1.5
4594 2
4595 3
4596 2
4597 4
4598 4.5
4599 2
4600 5.5
4601 4.5
4602 2.5
4603 1.5
4604 1.5
4605 2
4607 3.5
4609 3.5
4610 4
4611 4
4612 4
4613 5
4614 2
4615 7.5
4616 4.5
4617 1
4618 2.5
4619 5
4620 1.5
4621 2
4622 4
4623 7.5
4624 4
4625 3.5
4626 1
4628 6.5
4629 2
4630 5
4631 1.5
4632 3.5
4633 1.5
4634 3
4636 6
4637 6.5
4639 10
4640 2
4641 3
4643 2
4644 4
4645 4
4646 5
4648 1
4649 3.5
4650 2
4651 2.5
4652 2.5
4653 3
4654 2.5
4655 2.5
4656 1.5
4657 2
4658 1
4659 1.5
4660 1
4661 2
4662 1.5
4663 4
4664 1
4665 3
4666 5
4667 6
4668 1
4669 2.5
4670 1
4671 5.5
4672 1.5
4673 2.5
4674 11.5
4675 4
4676 1
4677 0.5
4678 2
4679 6
4682 3.5
4683 3
4684 6.5
4685 5
4686 4
4687 5
4688 2.5
4691 2.5
4692 1.5
4693 5
4694 5.5
4700 6
4702 4.5
4703 2.5
4705 8
5027 3
5028 3
5029 1
5030 2.5
5031 3.5
5032 3
5033 2
5034 4
5035 2
5036 1.5
5037 7
5038 2
5039 2
5040 3.5
5041 2
5042 1.5
5043 1.5
5044 2
5045 4
5046 4
5047 3.5
5048 1
5049 4
5050 3.5
5051 2
5052 5.5
5053 3
5054 2.5
5055 1
5056 3
5057 3.5
5058 3
5059 3.5
5060 3
5061 2
5062 6
5063 5
5064 3
5065 4.5
5066 5
5067 2.5
5068 2.5
5069 1.5
5070 2.5
5071 3
5072 2
5073 2
5074 3.5
5075 3
5076 3
5077 2
5078 3.5
5079 4.5
5080 5
5081 2.5
5082 4
5083 5.5
5084 1
5085 3
5086 5
5087 3
5088 2
5089 1
5090 3
5091 3
5092 3
5093 3
5095 3
5096 3
5097 3.5
5098 4
5099 2
5100 3
5101 2.5
5102 5
5103 2
5104 2
5105 4.5
5106 2
5107 2
5108 2.5
5109 3
5110 1
5111 6
5112 2
5113 3
5115 1
5116 2
5117 1.5
5118 7
5119 3
5120 3.5
5121 2.5
5122 7
5123 2
5124 2.5
5125 1.5
5126 3.5
5127 0.5
5128 5
5129 7.5
5130 4.5
5131 3
5132 1.5
5133 3.5
5134 5
5135 3
5136 2
5137 1.5
5138 1.5
5139 1.5
5140 6
5141 5
5142 5
5143 1.5
5144 1.5
5145 4.5
5146 5.5
5147 1
5149 5
5150 1
5152 3.5
5153 2.5
5154 4
5155 3
5156 6
5158 3
5159 3.5
5160 2
5161 2
5162 5.5
5163 2.5
5164 4
5165 4
5166 5
5167 4
5168 3.5
5169 4
5170 8.5
5171 3
5172 4
5173 1.5
5174 5
5175 3.5
5176 1.5
5177 3
5178 6
5179 4.5
5180 1
5181 1.5
5182 1.5
5183 1
5184 7
5185 2.5
5186 1.5
5187 2
5188 5.5
5190 3.5
5191 7
5193 4
5194 4
5195 3.5
5196 2
5197 5
5198 7
5200 7
5203 2
5205 4
5206 6
5207 3
5208 6
5243 1
5244 3
5245 3
5246 3
5247 2.5
5248 7
5249 5
5250 3.5
5251 5
5252 4
5253 5
5255 6
5256 3
5257 7
5258 5
5259 8.5
5260 3
5261 1.8
5262 0.3
5263 2
5265 5
5266 2.5
5267 4
5268 6
5269 1.5
5270 1.5
5271 6.4
5272 6.4
5273 1
5274 15.7
5275 1.7
5276 2.4
5277 12.2
5278 2
5279 14.7
5280 2
5281 6.6
5283 5.3
5284 3
5285 5.5
5286 1.7
5287 11.6
5289 8
5290 3.5
5291 0.3
5292 0.7
5294 1
5295 9.5
5296 16
5298 14.5
5300 5.5
5402 0.5
5403 0.5
5404 0.5
5405 1
5406 2
5407 6
5408 3
5409 1.5
5410 2
5411 2
5412 0.5
5413 1.5
5414 2
5415 1
5416 2
5417 4.8
5418 0.2
5419 1.5
5420 2
5421 1
5422 3
5423 3
5424 2
5425 2
5426 1
5427 2
5428 2.5
5429 1.5
5430 2
5431 3
5432 1.5
5433 3.5
5434 4
5435 1
5436 3
5437 7
5438 3
5439 0.2
5440 2
5441 4.5
5442 2
5443 0.5
5444 2
5445 3.5
5446 2.5
5447 3
5448 2
5449 1.5
5450 4.5
5451 3.5
5452 4
5453 2
5454 6
5455 3
5456 2
5457 1
5458 3
5459 3
5460 1.5
5461 1.5
5462 1
5463 3
5464 0.5
5465 2
5466 1.5
5467 4.5
5468 4
5469 1.5
5470 1
5471 3.5
5472 0.5
5473 3
5474 1
5475 4
5476 2
5477 7.5
5478 2
5479 3
5480 2
5481 4
5482 2.5
5483 1
5484 1.5
5485 1
5486 1.5
5487 1
5488 1.5
5489 0.75
5490 1.75
5491 1
5492 5.5
5493 3.5
5494 2
5495 1
5496 1.5
5497 0.5
5498 1
5499 2
5500 4
5501 3
5502 1
5503 3
5504 1.5
5505 5.5
5506 4
5507 2.5
5508 3.5
5509 0.5
5510 2.5
5511 3
5512 2
5513 4.5
5514 3
5515 5
5516 2
5517 3.5
5518 4
5519 1.5
5520 2.5
5521 5
5522 2
5523 2
5524 3
5525 5
5526 2
5527 3.5
5528 1
5529 1
5530 2
5531 1.5
5532 2
5533 1.5
5534 1.5
5538 2.5
5539 1.5
5542 1
5544 3
5545 3
5546 4
5547 2
5548 2
5549 2
5550 2.5
5551 1
5552 1.5
5553 1
5554 3
5555 4
5556 2.5
5557 5
5558 4
5559 2
5560 2
5561 4
5562 4
5563 1.5
5564 1
5565 1.5
5566 1.5
5567 1.5
5568 5
5569 6
5571 3.5
5572 6.5
5573 7.5
5574 3.5
5575 6
5576 5
5577 3
5578 3.5
5579 3
5580 1.5
5581 1
5795 8.5
5796 7.5
5797 6.5
5798 5.5
5799 7
5800 2
5801 5.5
5802 5
5803 3.5
5804 3
5805 5.5
5806 7
5807 2.5
5808 4
5809 1.5
5810 4
5811 1
5812 0.5
5813 6.5
5814 7
5815 11
5816 2.5
5817 2.5
5818 3.5
5819 1.5
5820 2.5
5821 3.5
5822 3
5823 6
5824 4
5825 11.5
5826 1.5
5827 2.5
5828 1.5
5829 3.5
5830 5
5831 4
5832 3
5833 5
5834 6.5
5835 4.5
5836 3
5837 2.5
5838 1.5
5839 2
5840 2.5
5841 2
5843 2
5844 6
5845 4.5
5846 2
5847 2
5848 2.5
5849 3.5
5850 2
5851 1
5852 1.5
5853 1
5854 2.5
5855 2
5856 1.5
5858 2
5859 3.5
5860 2
5861 5
5862 1.5
5863 3.5
5864 3
5865 5
5866 1
5867 1
5868 1
5869 2
5870 2
5871 5
5872 2
5873 2
5874 3
5875 2
5876 2.5
5877 2.5
5878 3
5879 4
5880 5
5882 2
5883 3
5884 3
5885 1
5886 2
5887 3.5
5888 1
5889 3
5890 7.5
5892 4
5893 2
5896 3.5
5897 1.5
5898 3
5899 2.5
5900 2
5904 4
5905 2
5906 8.5
5907 2
5908 7
5909 4.5
5911 2.5
5912 0.5
5913 19
5915 12
5916 8
5917 4
5919 5.5
5920 1.5
5922 2
5923 5.5
5924 6
5925 0.5
5926 2.5
5927 3.5
5928 6
5931 4
5932 3.5
5933 7.5
6128 1
6129 3
6130 2.5
6131 3
6132 2.5
6133 3
6134 6.5
6135 2.5
6136 1
6137 1
6138 1
6139 1
6140 4.5
6141 1.5
6142 4
6143 1.53
6144 1.5
6145 9.5
6146 2.5
6147 3.5
6148 4.5
6149 2.5
6150 2.5
6151 4
6152 1
6153 1.5
6154 3
6155 2
6156 2
6157 2
6158 2
6159 2
6160 4.5
6161 2
6162 1.5
6163 2.5
6164 2.5
6165 2.5
6166 2.5
6167 3
6168 1.5
6169 2
6170 4.5
6171 1.5
6172 2
6173 11
6174 5
6175 7.5
6176 2
6177 3
6178 2
6179 5.5
6180 2
6181 9
6182 5.5
6183 21.5
6184 2.5
6185 7
6186 4
6187 9
6188 8
6189 55
6190 12
6192 2
6193 2
6194 0.5
6195 3
6196 2.5
6197 2.5
6198 1.5
6199 1.5
6200 2.5
6201 2.55
6202 2.5
6203 1
6204 1.5
6205 5.5
6206 2
6207 2.5
6208 7.5
6209 5.5
6210 3.5
6211 4.5
6212 5
6213 6
6214 3
6215 3.5
6216 2.5
6217 4
6218 1
6219 3
6223 1.5
6224 1.5
6226 5
6227 4
6228 3
6229 2.5
6230 8
6232 3.5
6233 2.5
6234 3
6235 2
6236 3
6237 4
6238 2
6239 4
6240 4
6241 4.5
6242 4
6243 6.5
6244 3
6245 5
6246 3
6247 7
6248 3
6249 5
6250 3.5
6251 2
6252 2
6253 4.5
6254 1.5
6255 2.5
6256 2.5
6257 2.5
6258 2.5
6259 2.5
6260 0.5
6261 1
6262 4.5
6263 3
6264 1.5
6265 2.5
6266 4
6267 3
6268 2
6269 2
6270 3
6271 2
6272 1.5
6273 1.5
6274 2.5
6275 1.5
6276 1.5
6277 2.5
6278 1.5
6279 2.5
6280 3
6281 1.5
6282 1.5
6283 1.5
6284 2.5
6285 2
6286 1.5
6287 4
6288 3.5
6289 4.5
6290 2
6291 4
6292 4
6293 5
6295 3.5
6296 3
6297 2
6298 4
6299 1
6300 6.5
6301 4
6302 5
6303 2
6304 1
6305 4.5
6506 2
6507 2.5
6508 1.5
6509 2
6510 1
6511 1.5
6512 1.5
6513 1
6514 2
6515 3
6516 5.5
6517 4.5
6518 11
6521 3
6522 1
6523 4.5
6524 2.5
6526 2.5
6527 6.5
6528 1.5
6529 1.5
6530 3
6531 3.5
6532 4.5
6533 2
6534 1
6535 2
6536 2
6537 2.5
6539 3
6540 1.5
6541 1
6542 1
6543 2
6544 3.5
6545 2
6546 2
6547 3
6548 2
6549 4
6550 2.53
6551 2
6552 4.5
6553 7
6554 0.5
6555 3
6556 4.5
6557 1.5
6558 3.5
6560 2
6561 3
6562 2
6563 1.5
6564 1
6565 4
6566 1.5
6567 3
6570 7.5
6571 2
6573 4
6575 6
6576 1
6577 5
6578 4
6579 2
6580 1.5
6581 0.5
6582 8.5
6583 4.5
6584 4
6585 3
6586 1.5
6587 3.5
6588 4
6589 4
6590 1
6591 0.5
6592 2
6593 2
6594 3
6595 3
6596 7
6597 1.5
6598 0.5
6599 3.5
6600 3
6601 9
6602 2
6603 1.5
6604 3
6605 3.5
6606 2
6607 8.5
6608 7
6609 3
6610 3
6611 2.5
6612 2
6613 3
6614 2
6615 3
6616 5
6617 4.5
6618 3
6619 4
6620 3
6621 2
6622 2.5
6627 6
6628 1.5
6630 3.5
6631 10
6632 3
6633 4
6635 5
6889 5
6890 7.5
6891 2.5
6892 7.5
6893 3
6894 3
6895 2.5
6896 7.5
6897 4
6898 6
6899 3
6900 1
6901 2
6902 3.5
6903 4.5
6904 2
6905 3
6906 1.5
6907 1
6908 5.5
6909 3.5
6910 1.5
6911 2
6912 3
6913 4
6914 2
6915 5.5
6916 4.5
6917 4
6918 6
6919 2
6920 3.5
6921 2.5
6922 2.5
6923 3.5
6924 2
6925 2.5
6926 5
6927 4
6928 4
6929 4
6930 1.5
6931 2
6932 3
6933 1.5
6934 2
6935 4
6936 3
6937 3.5
6938 3.5
6939 3
6940 1
6941 1
6946 2
6947 1
6948 1.5
6949 3
6950 4
6951 2
6952 3.5
6953 3
6954 2
6955 2.5
6956 2
6957 5
6958 3
6959 5
6960 2.5
6962 1.5
6963 2
6964 3.5
6965 0.5
6966 4
6967 2
6968 4
6969 5
6970 1.5
6971 2.5
6972 2.5
6973 4.5
6974 3
6975 5.5
6976 1.5
6977 1.5
6978 10.5
6979 2.5
6980 1.5
6981 2
6982 3
6983 2
6984 1.5
6985 2
6986 3.5
6987 3
6988 2.5
6991 3
6994 3.5
7074 2
7075 1.5
7076 0.5
7077 1
7078 2
7079 3
7080 3
7081 1.5
7082 2
7083 1.5
7084 3
7085 3
7086 2.5
7087 2
7088 3.5
7089 1.5
7090 6
7091 0.5
7092 2.5
7093 1.5
7094 2
7095 2.5
7096 2.5
7097 1.5
7098 1
7099 2.5
7100 2.5
7101 2
7102 2.5
7103 3
7104 5
7105 2
7106 3
7107 1.5
7108 2
7109 1
7110 3
7111 5
7112 4
7113 4.5
7114 4
7115 1.5
7116 2
7117 3
7118 3
7119 2.5
7120 4.5
7121 3
7122 2
7123 2.5
7124 2.5
7125 3
7126 3
7127 3
7128 3.5
7129 1.5
7130 3
7131 4
7132 1
7133 2
7134 1.5
7135 1
7136 8.5
7137 0.5
7138 3.5
7139 1.5
7140 4
7141 2
7142 2
7143 1
7144 2.5
7145 1
7146 2
7147 2.5
7148 1
7149 7
7150 5.5
7151 4.5
7152 4
7153 3
7154 3
7155 2.5
7156 2.5
7157 1.5
7158 1.5
7159 1.5
7160 6.5
7161 2
7162 1
7163 1.5
7164 2
7165 1.5
7166 2.5
7167 1.5
7168 2
7169 1.5
7170 1.5
7171 3
7172 3
7173 2
7174 3
7175 2
7176 3
7177 2.5
7178 2.5
7179 1
7180 2.5
7181 1
7182 2
7183 2.5
7184 3
7185 2
7186 3
7187 2
7188 1
7189 4
7190 4.5
7191 2
7192 4
7193 2.5
7194 7
7195 0.5
7196 6
7197 3
7198 2.5
7199 4.5
7200 2.5
7201 7
7202 15.5
7203 4
7204 5.5
7205 1
7206 5
7207 4
7208 1
7209 2.5
7210 2.5
7211 4.5
7212 2.5
7213 1
7214 8
7215 6.5
7216 6.5
7218 2.5
7219 2.5
7220 2
7221 2
7222 1.5
7223 2
7224 1.5
7225 3
7226 3
7227 3
7228 4
7229 3
7230 2.5
7231 1
7232 2
7233 2
7234 3
7235 2.5
7236 3
7237 2.5
7239 2
7240 3
7241 1.5
7242 3
7243 3
7244 2
7245 2
7246 4
7247 6.5
7248 1
7249 9
7250 1
7251 2.5
7252 4.5
7253 4
7254 5
7255 6.5
7256 2.5
7257 1.5
7258 2
7259 4
7260 1
7261 2.5
7262 2
7263 3.5
7264 2
7265 5.5
7266 5.5
7267 3
7268 1.5
7269 9.5
7270 5.5
7271 2
7272 4
7273 5
7274 2
7275 2
7276 3
7277 4
7278 4
7279 2.5
7280 6
7281 6.5
7283 6
7284 4
7285 2
7286 1.5
7287 1
7288 3.5
7289 1
7290 1
7291 2.5
7292 1
7293 4
7294 6
7295 5.5
7296 2
7297 4
7298 2
7299 3
7300 3
7301 2
7302 1
7303 5
7304 3.5
7305 1
7306 2
7307 3
7308 7
7309 1.5
7310 1.5
7311 1.5
7312 1
7313 3
7314 2.5
7315 2.5
7319 1
7323 2.5
7324 3
7326 7
7327 4
7328 4.5
7329 4
7330 1.5
7331 5
7332 1
7333 3
7337 1.5
7527 2.5
7528 1.5
7529 3.5
7530 2
7531 2.5
7532 3
7533 2
7534 1.5
7535 3
7536 2
7537 2
7538 3
7539 7.5
7540 1.5
7541 1
7542 3
7543 1
7544 2
7545 1
7546 2.5
7547 5
7548 1
7549 5
7550 3
7551 4
7552 5.5
7553 2.5
7554 3.5
7555 1.5
7556 2
7557 2
7558 3.5
7559 1.5
7560 2
7561 3
7562 4
7563 2.5
7564 5.5
7565 4
7566 5
7567 1.5
7568 2.5
7569 4
7570 3.5
7571 1
7572 2.5
7573 2.5
7574 1
7575 1
7576 4
7577 3.5
7578 2
7579 5
7580 3
7581 3.5
7582 3
7583 2
7584 2
7585 2
7586 2
7587 1.5
7588 1.5
7589 1.5
7590 2.5
7591 2.5
7593 2
7594 1.5
7595 5.5
7596 3.5
7597 3.5
7598 0.5
7600 0.5
7601 0.5
7602 2
7603 1.5
7604 3
7605 2
7606 4
7607 5
7608 1.5
7609 3
7610 4
7611 2
7612 2
7613 5
7614 2
7615 4
7616 4
7617 2
7618 3
7619 2
7620 4
7621 4
7622 3.5
7623 4
7624 4.5
7625 3.5
7626 1.5
7627 2
7628 2
7629 1
7630 3
7631 2.5
7632 2
7633 2.5
7634 2
7635 3
7636 5.5
7637 3.5
7638 3
7639 3
7640 2.5
7641 1.5
7642 1.5
7643 1
7644 1
7645 1
7646 2
7647 1.5
7648 1.5
7649 2.5
7650 3.5
7651 1
7652 1
7653 2.5
7654 2
7655 4.5
7656 1
7657 2.5
7658 4
7659 5.5
7660 1
7661 3.5
7662 2
7663 2.5
7664 1.5
7665 4.5
7666 2.5
7667 2.5
7668 0.5
7669 3
7670 3
7671 1
7672 2
7673 1
7674 1
7675 1
7676 3
7677 2.5
7678 4
7679 1.5
7680 1
7681 2.5
7682 0.5
7683 1.5
7684 4.5
7685 3
7686 3.5
7687 5
7688 3.5
7689 2
7690 2
7691 0.5
7692 1.5
7693 3
7694 2
7695 4.5
7696 5
7697 2
7698 2
7699 2
7700 1
7701 2.5
7702 2
7703 2
7704 1.5
7705 2
7706 4.5
7707 1.5
7708 2
7709 3.5
7710 1.5
7711 1
7712 3
7713 3
7714 3.5
7715 3
7716 2
7717 2.5
7718 1.5
7719 4
7720 1.5
7721 3
7722 3
7723 2
7724 3.5
7725 4
7726 4.5
7727 2
7728 4
7729 3.5
7730 3
7731 2
7732 2
7733 1
7734 1
7735 1
7736 2
7737 2
7738 2
7739 2.5
7740 2
7741 3
7742 1.5
7743 1.5
7744 1.5
7745 2
7746 4
7747 2
7748 0.5
7749 1
7751 2.5
7755 3
7759 5
7760 3
8027 7.5
8028 4
8029 2.5
8030 4
8031 2.5
8032 3
8033 2.5
8034 3.5
8035 4
8036 1.5
8037 1.5
8038 3
8039 4.5
8040 2.5
8041 2.5
8042 1.5
8043 1
8044 3.5
8045 3
8046 2
8047 2
8049 1.5
8050 5
8051 4
8052 1.5
8053 3
8054 5
8055 4
8056 4.5
8057 3
8058 1.5
8059 3
8060 3.5
8061 2
8062 3.5
8063 1.5
8064 1.5
8065 3
8066 2.5
8067 1.5
8068 2
8069 3.5
8070 2.5
8071 2.5
8072 5
8073 2
8074 4.5
8075 3.5
8076 6
8077 8
8078 9
8079 3
8080 1
8081 4.5
8082 1.5
8083 3.5
8084 1
8085 1
8086 3
8087 2
8088 3.5
8089 3
8090 2
8091 6
8092 1.5
8093 3
8094 4.5
8095 1
8096 3
8097 2
8098 1
8099 1.5
8100 1.5
8101 2
8102 2
8103 4.5
8104 2
8105 3
8106 4
8107 3.5
8108 6
8109 5
8110 2.5
8111 1
8112 2
8113 2
8114 1
8115 2
8116 3.5
8117 3
8118 3
8119 3
8120 3
8121 4
8122 2.5
8123 4
8124 3
8125 2
8126 2.5
8127 3
8128 1.5
8129 1
8130 3.5
8131 5
8132 3
8133 3
8134 2
8135 1
8136 1.5
8137 3
8138 1.5
8139 1
8140 2.5
8141 2
8142 1
8143 3
8144 2.5
8145 2
8146 3
8147 1.5
8148 3
8149 1.5
8150 4.5
8151 4
8152 3.5
8153 3.5
8154 1
8155 3.5
8156 3
8157 4
8158 4
8159 2.5
8160 2.5
8161 1.5
8162 2.5
8163 3.5
8164 3
8165 3
8167 2
8168 2
8169 2
8170 2.5
8171 3.5
8172 1.5
8173 1.5
8174 3
8175 0.5
8176 2
8177 5
8178 3
8179 3.5
8180 8
8181 2.5
8182 1
8183 4
8184 1.5
8185 5.5
8186 2
8188 2.5
8189 5
8191 1
8192 1.5
8194 4
8195 500
8196 2
8197 3
8198 2
8199 2.5
8200 3
8201 3
8331 3
8332 2
8333 2
8337 2.5
8339 1
8340 1
8341 3
8342 3.5
8343 5
8344 3
8345 4
8346 3
8347 3
8348 0.5
8349 1.5
8350 2
8351 4
8352 2
8353 4
8354 5
8355 5
8356 1
8357 1.5
8358 2
8359 1.5
8361 5
8362 1.5
8366 5
8367 4
8368 1.5
8369 1.5
8370 4.5
8371 4
8372 4
8373 5
8445 3
8446 4
8447 3.5
8448 1.5
8449 0.5
8450 2.5
8451 1
8452 1.5
8453 1.5
8454 1.5
8455 2
8456 1.5
8457 2.5
8458 2.5
8459 1
8460 1.5
8461 4
8462 3.5
8463 1.5
8464 4
8465 3.5
8466 1
8467 6
8468 4
8469 0.5
8470 2.5
8471 0.5
8472 4.5
8473 1
8474 1.5
8475 2.5
8476 1.5
8477 1
8478 1
8479 3.5
8480 5
8481 3.5
8482 4
8483 4.5
8484 9
8485 2.5
8486 0.5
8487 0.5
8488 3
8489 0.5
8490 3.5
8491 2
8492 0.5
8493 2
8494 2
8495 3
8497 3.5
8498 2
8499 5
8500 4.5
8501 0.5
8502 1.5
8503 2.5
8504 1.5
8505 1
8506 2
8507 4.5
8508 3.5
8509 1
8510 5
8511 3
8512 2
8513 2.5
8514 0.5
8515 2
8516 4
8517 3
8518 2
8519 2.5
8520 5
8521 1
8522 1.5
8523 3
8524 4
8526 3.5
8527 3
8528 2
8529 3
8530 2.5
8531 3.5
8532 3
8533 2.5
8534 3
8535 4
8537 7
8540 5.5
8541 3
8542 4
8543 2
8627 2
8628 2
8629 2.5
8630 3
8631 2
8632 1.5
8633 1
8634 2
8635 2.5
8636 3
8637 1.5
8638 3
8639 3.5
8640 2
8641 2.5
8642 2
8643 2.5
8644 2
8645 3.5
8646 1
8647 1
8648 1.5
8649 1.5
8650 3.5
8651 2.5
8652 3.5
8653 1.5
8654 5.5
8655 1.5
8656 2
8657 6
8658 1.5
8659 2
8660 2
8661 2
8662 0.5
8663 1
8664 2
8665 3
8666 2
8667 1
8668 1.5
8669 3.5
8670 2
8671 5
8672 5
8673 3
8674 3.5
8675 2.5
8676 1.5
8677 2
8678 4
8679 0.5
8680 6
8681 2.5
8682 1.5
8683 1.5
8684 4.5
8685 1
8686 1
8687 1
8688 1.5
8689 1
8690 2
8691 2.5
8692 1.5
8693 3.5
8694 2
8695 2
8696 2.5
8697 3
8698 6
8699 3.5
8700 1.5
8701 2
8702 3.5
8703 4
8704 4
8705 5.5
8706 3.5
8707 7
8708 2.5
8709 1.5
8710 3.5
8711 3
8712 5
8713 8.5
8714 3
8715 3
8716 2
8717 2
8718 2.5
8719 1.5
8720 2
8721 2.5
8722 3
8723 4
8724 2
8726 2
8727 2.5
8728 3.5
8729 2.5
8730 3
8731 1.5
8732 4
8733 2
8734 3
8735 3.5
8736 3
8737 2.5
8738 1
8739 2
8740 3
8741 4
8742 1
8743 2.5
8744 4.5
8745 4
8746 1
8747 2.5
8748 2
8749 2.5
8750 3.5
8751 5
8752 5.5
8753 2.5
8754 1.5
8755 2
8756 4
8757 3.5
8758 1
8759 2
8760 2
8761 4
8762 4
8763 3.5
8764 3
8765 3
8766 2
8767 1
8768 3
8769 1.5
8770 3.5
8771 1.5
8772 3
8773 3.5
8774 3
8775 2
8776 3.5
8777 2
8778 6
8779 5.5
8780 3
8781 3
8782 3
8783 4
8784 4.5
8787 1
8789 1.5
8790 2
8792 3
8793 2
8794 1
8795 3
8796 5
8797 2
8798 4
8799 2.5
8800 3
8801 2
8802 2.5
8803 4
8804 2
8805 4
8806 2.5
8807 1.5
8808 2.5
8809 2.5
8810 3.5
8811 3
8812 1.5
8813 3.5
8814 2
8815 5
8816 3
8817 3
8818 2
8819 3
8820 5
8821 2.5
8822 2.5
8823 2
8824 5.5
8825 4
8826 3
8827 3
8828 3.5
8829 500
8830 2
8831 4
8832 2
8833 2
8834 2.5
8835 2.5
8836 13.5
8837 1.5
8838 4
8839 2.5
8840 3.5
8841 1.5
8842 4
8843 3
8844 5
8845 1.5
8847 3.5
8848 2
8853 4
8854 1.5
8855 5
8862 3
8865 3.5
8867 500
9125 2.5
9126 1.5
9127 4
9128 2.5
9129 2
9130 3
9131 2
9132 2
9133 2
9134 2.5
9135 1.5
9136 3.5
9137 2.5
9138 2
9139 4
9140 1.5
9141 2
9142 1.5
9143 2
9144 1.5
9145 2.5
9146 2
9148 2
9150 1
9151 2
9152 1.5
9153 1.5
9154 3
9155 2
9156 1.5
9157 2.5
9158 3
9159 2
9160 1
9161 3.8
9162 5
9163 11
9164 3.5
9165 4
9166 2.5
9167 1
9168 3.5
9171 2.5
9172 3.5
9173 2.5
9174 4
9175 3
9176 2
9177 4
9178 1.5
9179 3
9180 1.5
9181 3.4
9182 3
9184 2.5
9186 1
9187 2
9189 3
9190 1.5
9191 4
9193 3
9194 2
9195 3.5
9196 4
9197 2
9198 4.5
9199 4
9200 2
9201 6.5
9202 3
9203 4
9204 3
9205 3
9206 5.5
9207 1
9210 6
9212 3
9213 2.5
9214 6
9299 2
9300 2.5
9301 2
9302 3.5
9303 2.5
9304 2
9305 2
9306 3
9307 3
9308 3
9309 2
9310 3
9311 1
9313 5
9314 6
9315 1.5
9316 2.5
9318 1.5
9319 2.5
9320 3.5
9321 2
9322 4.5
9323 3
9324 2
9325 3
9326 4.5
9327 3
9328 4.5
9329 6.5
9330 4.5
9331 4
9332 7
9333 2
9334 3
9335 1.5
9336 5.5
9337 4
9338 5.5
9339 2.5
9340 7
9341 2
9342 3.5
9343 9.5
9344 2
9345 2.5
9346 3.5
9347 4
9348 3
9349 2
9350 3
9351 5
9352 4
9353 2
9354 5
9355 2
9356 5
9357 4
9358 3
9359 3
9360 4
9361 4.5
9362 4
9363 5
9364 2.5
9365 4.5
9366 6.5
9367 3.5
9368 1
9369 2
9370 2
9371 4.5
9372 3
9373 3
9374 3
9375 1
9376 0.5
9377 4.5
9378 3
9379 6
9381 3
9384 2.5
9385 3.5
9386 2.5
9387 1
10354 10.5
10391 8.5
10392 2
10393 2
10395 2.5
10405 1.5
10407 3
10408 5
10409 3.5
10410 4.5
10411 4.5
10412 5.5
10413 3
10414 5
10415 5
10416 4
10417 2.5
10418 3
10419 3
10420 5.5
10421 4
10422 4.5
10423 6
10424 2.5
10425 2.5
10426 4
10427 2
10428 2
10430 2.5
10431 4.749
10432 2.9
10433 1.949
10434 0.903
10435 4.321
10436 1.2
10437 1.831
10438 4.271
10439 5.978
10440 5.5
10441 1.5
10442 2.7
10443 2.581
10444 5.214
10445 3.594
10446 12.597
10447 3.639
10448 2.102
10449 6.56
10450 2.748
10451 6.578
10452 4.338
10453 2.272
10454 3.5
10455 3
10456 2.672
10457 3.5
10458 4.008
10459 2
10460 4
10461 1.945
10462 2.615
10463 5.411
10464 1.460
10465 3.349
10466 7.1
10467 5.323
10468 2.079
10469 2
10470 4.17
10471 7
10472 1.71
10473 5.113
10474 1.386
10475 4.079
10476 3.221
10477 4.286
10478 4.09
10479 3
10480 2.892
10481 4.5
10482 10.240
10483 7.558
10484 6.369
10485 1.662
10486 1.454
10487 0.451
10488 3.220
10489 3.745
10490 1.020
10491 3
10492 1.5
10493 5.302
10494 2.117
10495 5
10496 4
10497 3
10498 1.5
10499 5.408
10500 3.584
10501 1.5
10502 2.817
10503 7
10504 1.833
10505 3.417
10506 1.314
10507 9.975
10508 4.750
10509 1.28
10510 4.15
10511 5.252
10512 9.094
10513 3.101
10514 0.985
10515 1.983
10516 3.524
10517 4.724
10518 2.5
10519 6.074
10520 3.73
10521 4
10522 4.726
10523 2.953
10524 2.436
10525 4.527
10526 6.073
10527 2.072
10528 2.382
10529 4.248
10530 2.384
10531 3.417
10532 4.049
10533 1.304
10534 1.603
10535 0.472
10536 1.014
10537 1.12
10538 4.077
10539 2.039
10540 2.198
10541 2.198
10542 4.084
10543 1.361
10544 2.339
10545 2.729
10546 0.84
10547 1.55
10548 1.426
10549 2.614
10550 4.983
10551 5.834
10552 2.37
10553 2.656
10554 3.81
10555 1.244
10556 2.403
10557 5
10558 4.733
10559 3.176
10560 5.305
10561 4.602
10562 3.502
10563 3.829
10564 0.8
10565 1.564
10566 0.8
10567 2.008
10568 0.975
10569 1.521
10570 1.167
10571 4
10572 1.308
10573 1
10574 1.009
10575 1.696
10576 3.472
10577 3.472
10578 1.4
10579 1.2
10580 3.491
10581 1.11
10582 1.61
10583 2.5
10584 2.8
10585 1
10586 1.15
10587 2.38
10588 3.948
10589 2.000
10590 3.717
10591 2.014
10592 4.500
10593 2
10594 2
10595 2.013
10596 1.713
10597 4.751
10598 2.333
10599 0.5
10600 2
10601 1.35
10602 2
10603 1.282
10604 4
10605 1.744
10606 1.602
10607 13.887
10608 6
10609 5.165
10610 4.935
10611 2.496
10612 3.862
10613 2.638
10614 3.658
10615 4.088
10616 1.524
10617 3.088
10618 1.888
10619 2.508
10620 1
10621 1.476
10622 5.19
10623 8.864
10624 0.942
10625 2.019
10626 2.012
10627 2.436
10628 10.589
10629 1.296
10630 2.591
10631 4.304
10632 2.895
10633 2.309
10634 1.540
10635 3.080
10636 1.651
10637 4.903
10638 1.154
10639 1.725
10640 4.08
10641 2.888
10642 3.464
10643 4.042
10644 4.168
10645 1.690
10646 3.099
10647 2.077
10648 2.594
10649 1.297
10650 3.385
10651 0.600
10652 0.720
10653 0.740
10654 1.024
10655 1.652
10656 2.013
10657 1.268
10658 0.600
10659 1.368
10660 2.735
10661 2.662
10662 2.030
10663 3.931
10664 1.660
10665 1.659
10666 5.194
10667 1.540
10668 1.697
10669 3.056
10670 3.693
10671 3.92
10672 5.279
10673 7.5
10674 2.519
10675 1.672
10676 1.835
10677 1.107
10678 2.470
10679 4.225
10680 4.500
10681 1.577
10682 7.670
10683 4.573
10684 2
10685 4.249
10686 10.688
10687 1.276
10688 6.444
10689 1.292
10690 4.702
10691 2.878
10692 1.895
10693 1.389
10694 1.503
10695 2.57
10696 2.7
10697 2.06
10698 2
10699 1
10700 2.744
10701 2
10702 3
10703 1.404
10704 2.261
10705 0.974
10706 2.880
10707 0.728
10708 1.814
10709 2.034
10710 3.642
10711 2.106
10712 1.674
10713 2.463
10714 2.854
10715 2.292
10716 0.9
10717 1.681
10718 1.212
10719 1.988
10720 2
10721 1.511
10722 2.940
10723 3.784
10724 1.189
10725 4.058
10726 1.185
10727 2.214
10728 2.5
10729 1
10730 2.743
10731 2.311
10732 4.146
10733 2.864
10734 1
10735 2.402
10736 1.863
10737 5.35
10738 2.987
10739 5.810
10740 0.6
10741 3.0
10742 2.530
10743 3.010
10744 5.417
10745 4.665
10746 9.5
10747 2.98
10748 8.281
10749 4.554
10750 1.514
10751 5.291
10752 11.134
10753 8.203
10754 2
10755 2.107
10756 2.743
10757 1.5
10758 4.5
10759 1.550
10760 3.533
10761 4.5
10762 1.5
10763 1.5
10764 2.442
10765 3.419
10766 4
10767 4.312
10768 8.111
10769 0.975
10770 2.832
10771 2.053
10772 2.677
10773 1.006
10774 0.806
10775 2.879
10776 1
10777 5.556
10778 2
10779 1.111
10780 5.321
10781 0.554
10782 5.036
10783 1.256
10784 3.167
10785 6.582
10786 3.370
10787 1.077
10788 3.154
10789 1.167
10790 0.824
10791 2
10792 4.466
10793 2.477
10794 1.984
10795 0.462
10796 1.926
10797 7.909
10798 9.905
10799 1.898
10800 3.203
10801 2.27
10802 3.518
10803 13.478
10804 3.672
10805 13.709
10806 6.273
10807 5.768
10808 1.288
10809 2.747
10810 2.245
10811 1.0
10812 3.118
10813 2.051
10814 0.997
10815 3.142
10816 1.481
10817 1.245
10818 1.572
10819 2.515
10820 1.881
10821 2.268
10822 0.785
10823 0.8
10824 1.022
10825 2.503
10826 1.34
10827 0.531
10828 2.333
10829 1.544
10830 2.07
10831 1.5
10832 1.5
10833 2.503
10834 1.831
10835 0.726
10836 2.83
10837 1.262
10838 0.426
10839 2.342
10840 2.55
10841 1.018
10842 2.718
10843 2.551
10844 2.551
10845 2.662
10846 3.622
10847 0.695
10848 3.388
10849 1.5
10850 2
10851 3.283
10852 3.556
10853 4.151
10854 4.738
10855 0.5
10856 0.5
10857 2.673
10858 3.603
10859 2.627
10860 1.5
10861 1.8
10862 1.62
10863 1.633
10864 12.385
10865 1.002
10866 2.817
10867 4.152
10868 3.094
10869 3.929
10870 1.859
10871 2.73
10872 0.846
10873 1.123
10874 2.628
10875 1.615
10876 4.977
10877 5.725
10878 7.5
10880 8.002
10882 2.514
10883 2.395
10885 1.796
10886 1.004
10887 1.658
10888 1.004
10889 0.9
10890 0.9
10891 1.942
10892 2
10893 1.45
10894 3
10895 3
10896 10.5
10897 5
10898 12
10899 7
10900 6.5
10901 9.027
10902 23.132
10903 0.5
10904 1.530
10905 3.553
10906 3.867
10907 2.326
10908 6.167
10909 3.816
10910 2.312
10911 2.5
10912 3.316
10913 6.191
10914 15.267
10915 4.151
10916 1.93
10917 2.888
10918 2.236
10919 4.716
10920 2.718
10921 3.096
10922 9.853
10923 0.483 
10924 4.642
10927 5.5
10928 8.5
10929 1
10930 7
10931 1
10932 3
10933 0.5
10934 0.5
10935 7.2
10936 1
10937 0.5
10938 1.5
10939 1
10940 4
10941 1
10942 1.5
10943 1.5
10944 4
10945 1
10946 4
10947 4
10948 2
10949 6.5
10950 2
10951 3
10952 4
10953 4
10954 1.5
10955 3
10956 1
10957 1
10958 4
10959 2.5
10960 0.5
10961 3
10962 4
10963 5.5
10964 2
10965 4
10966 2.5
10967 1
10968 4
10969 2.5
10970 9.5
10971 1
10972 5
10973 2
10974 4
10975 2
10976 3
10977 0.5
10978 3.5
10979 3.5
10981 2
10982 2
10983 2
10984 1.5
10985 2.5
10986 2.5
10987 2.5
10988 1
10989 1.5
10990 1.5
10991 3
10992 2
10994 2
10995 1.5
10996 1.5
10997 4
10998 3
10999 2
11000 2.5
11001 2
11002 4
11003 3.5
11004 4.5
11005 5
11006 4.5
11007 0.5
11008 2
11009 2.5
11010 5
11011 1
11013 8
11014 3
11015 3.5
11016 3
11018 8
11019 1
11020 3
11021 5.5
11022 3.5
11023 2
11024 2.5
11025 1.5
11026 4.5
11027 2
11028 3.5
11029 2
11030 2.5
11031 3
11032 1.5
11033 1.5
11035 3
